"Time (s)","Magnetic Field x (µT)","Magnetic Field y (µT)","Magnetic Field z (µT)","Absolute field (µT)"
1.920980600E-2,-2.741250038E1,-1.063125038E1,-4.230000305E1,5.151464763E1
2.920980600E-2,-2.799375153E1,-9.056250572E0,-4.263750076E1,5.180368974E1
3.920980600E-2,-2.797500038E1,-7.743750095E0,-4.344375229E1,5.224869304E1
4.920980600E-2,-2.773125076E1,-6.525000095E0,-4.402500153E1,5.243852262E1
5.920980600E-2,-2.791875076E1,-5.306250095E0,-4.455000305E1,5.284236658E1
6.920980600E-2,-2.782500076E1,-4.200000286E0,-4.477500153E1,5.288356485E1
7.920980600E-2,-2.728125191E1,-3.712500095E0,-4.511250305E1,5.285061300E1
8.920980600E-2,-2.540625191E1,-3.375000238E0,-4.575000000E1,5.243978225E1
9.920980600E-2,-2.300625038E1,-2.756250143E0,-4.674375153E1,5.217147476E1
1.092098060E-1,-2.017500114E1,-2.306250095E0,-4.777500153E1,5.191146532E1
1.192098060E-1,-1.715625000E1,-1.781250119E0,-4.867500305E1,5.164073671E1
1.292098060E-1,-1.451250076E1,-9.187500477E-1,-4.987500381E1,5.195163891E1
1.392098060E-1,-1.258125019E1,-2.625000179E-1,-5.060625076E1,5.214738132E1
1.492098060E-1,-1.151250076E1,2.625000179E-1,-5.115000153E1,5.243023208E1
1.592098060E-1,-1.117500019E1,4.500000179E-1,-5.139375305E1,5.259658717E1
1.692098060E-1,-1.233750057E1,1.012500048E0,-5.135625076E1,5.282711017E1
1.792098060E-1,-1.402500057E1,1.425000072E0,-5.081250381E1,5.273179127E1
1.892098060E-1,-1.683750153E1,1.668750048E0,-4.968750381E1,5.248937245E1
1.992098060E-1,-2.038125038E1,1.950000048E0,-4.831875229E1,5.247761132E1
2.092098060E-1,-2.388750076E1,1.631250024E0,-4.681875229E1,5.258582732E1
2.192098060E-1,-2.653125191E1,1.556250095E0,-4.560000229E1,5.277963102E1
2.292098060E-1,-2.836875153E1,1.462500095E0,-4.475625229E1,5.300987727E1
2.392098060E-1,-2.921250153E1,1.425000072E0,-4.430625153E1,5.308902707E1
2.492098060E-1,-2.885625076E1,1.181250095E0,-4.440000153E1,5.296639213E1
2.592098060E-1,-2.782500076E1,7.875000238E-1,-4.492500305E1,5.284985074E1
2.692098060E-1,-2.615625191E1,5.812500119E-1,-4.612500000E1,5.302832253E1
2.792098060E-1,-2.375625038E1,3.375000060E-1,-4.743750000E1,5.305459212E1
2.892098060E-1,-2.128125000E1,5.062500238E-1,-4.863750076E1,5.309194262E1
2.992098060E-1,-1.921875000E1,4.312500060E-1,-4.972500229E1,5.331155767E1
3.092098060E-1,-1.786875153E1,2.437500060E-1,-5.049375153E1,5.356277288E1
3.192098060E-1,-1.700625038E1,2.625000179E-1,-5.094375229E1,5.370798223E1
3.292098060E-1,-1.655625153E1,2.625000179E-1,-5.120625305E1,5.381689997E1
3.392098060E-1,-1.666875076E1,3.750000000E-1,-5.115000153E1,5.379879676E1
3.492098060E-1,-1.681875038E1,5.625000000E-1,-5.081250381E1,5.352660380E1
3.592098060E-1,-1.738125038E1,5.812500119E-1,-5.056875229E1,5.347564328E1
3.692098060E-1,-1.818750000E1,3.937500119E-1,-5.028750229E1,5.347684622E1
3.792098060E-1,-1.837500000E1,4.125000238E-1,-5.002500153E1,5.329457345E1
3.892098060E-1,-1.831875038E1,4.312500060E-1,-4.998750305E1,5.324014513E1
3.992098060E-1,-1.822500038E1,3.187500238E-1,-5.006250381E1,5.327763629E1
4.092098060E-1,-1.824375153E1,3.187500238E-1,-5.002500153E1,5.324882017E1
4.192098060E-1,-1.831875038E1,4.500000179E-1,-5.017500305E1,5.341638369E1
4.292098060E-1,-1.841250038E1,4.125000238E-1,-5.043750381E1,5.369480531E1
4.392098060E-1,-1.837500000E1,4.125000238E-1,-5.025000381E1,5.350582832E1
4.492098060E-1,-1.833750153E1,4.500000179E-1,-5.053125381E1,5.375754900E1
4.592098060E-1,-1.839375114E1,6.375000477E-1,-5.083125305E1,5.406063979E1
4.692098060E-1,-1.850625038E1,7.312500477E-1,-5.086875153E1,5.413544044E1
4.792098060E-1,-1.860000038E1,8.625000119E-1,-5.070000076E1,5.401105440E1
4.892098060E-1,-1.865625000E1,8.625000119E-1,-5.053125381E1,5.387213735E1
4.992098060E-1,-1.886250114E1,6.937500238E-1,-5.036250305E1,5.378342637E1
5.092098060E-1,-1.912500000E1,7.875000238E-1,-5.015625381E1,5.368459349E1
5.192098060E-1,-1.925625038E1,6.937500238E-1,-5.015625381E1,5.373019881E1
5.292098060E-1,-1.895625114E1,8.625000119E-1,-5.002500153E1,5.350312273E1
5.392098060E-1,-1.886250114E1,7.312500477E-1,-4.993125153E1,5.338031992E1
5.492098060E-1,-1.903125000E1,7.125000358E-1,-4.963125229E1,5.315973417E1
5.592098060E-1,-1.899375153E1,7.312500477E-1,-4.985625076E1,5.335675275E1
5.692098060E-1,-1.908750153E1,8.062500358E-1,-4.985625076E1,5.339127732E1
5.792098060E-1,-1.906875038E1,8.812500238E-1,-4.976250076E1,5.329822065E1
5.892098060E-1,-1.899375153E1,6.750000119E-1,-4.974375153E1,5.325090645E1
5.992098060E-1,-1.895625114E1,7.875000238E-1,-4.991250229E1,5.339679296E1
6.092098060E-1,-1.897500038E1,6.750000119E-1,-4.991250229E1,5.340191148E1
6.192098060E-1,-1.918125153E1,4.875000119E-1,-4.968750381E1,5.326355322E1
6.292098060E-1,-1.925625038E1,4.125000238E-1,-4.981875229E1,5.341237136E1
6.392098060E-1,-1.940625000E1,3.750000000E-1,-4.974375153E1,5.339647910E1
6.492098060E-1,-1.948125076E1,4.500000179E-1,-4.976250076E1,5.344181989E1
6.592098060E-1,-1.908750153E1,3.562500179E-1,-4.980000305E1,5.333385353E1
6.692098060E-1,-1.897500038E1,4.125000238E-1,-4.993125153E1,5.341676399E1
6.792098060E-1,-1.884375000E1,2.625000179E-1,-4.996875381E1,5.340442096E1
6.892098060E-1,-1.903125000E1,2.062500119E-1,-5.011875153E1,5.361082232E1
6.992098060E-1,-1.888125038E1,2.812500000E-1,-5.041875076E1,5.383893708E1
7.092098060E-1,-1.882500076E1,4.875000119E-1,-5.055000305E1,5.394368470E1
7.192098060E-1,-1.858125114E1,5.062500238E-1,-5.055000305E1,5.385927953E1
7.292098060E-1,-1.837500000E1,4.687500298E-1,-5.038125229E1,5.362957145E1
7.392098060E-1,-1.878750038E1,3.000000119E-1,-5.021250153E1,5.361301596E1
7.492098060E-1,-1.869375038E1,3.562500179E-1,-5.008125305E1,5.345760119E1
7.592098060E-1,-1.880625153E1,5.250000358E-1,-5.011875153E1,5.353354066E1
7.692098060E-1,-1.884375000E1,5.250000358E-1,-4.983750153E1,5.328357249E1
7.792098060E-1,-1.893750000E1,4.125000238E-1,-4.957500076E1,5.307051689E1
7.892098060E-1,-1.903125000E1,2.812500000E-1,-4.944375229E1,5.298067778E1
7.992098060E-1,-1.933125114E1,2.437500060E-1,-4.938750076E1,5.303660921E1
8.092098060E-1,-1.957500076E1,2.062500119E-1,-4.942500305E1,5.316064447E1
8.192098060E-1,-1.897500038E1,3.937500119E-1,-4.961250305E1,5.311879270E1
8.292098060E-1,-1.903125000E1,3.187500238E-1,-4.981875229E1,5.333102435E1
8.392098060E-1,-1.895625114E1,1.500000060E-1,-4.974375153E1,5.323347418E1
8.492098060E-1,-1.878750038E1,1.500000060E-1,-4.985625076E1,5.327887396E1
8.592098060E-1,-1.901250076E1,1.500000060E-1,-4.987500381E1,5.337615283E1
8.692098060E-1,-1.895625114E1,1.687500030E-1,-4.976250076E1,5.325105085E1
8.792098060E-1,-1.895625114E1,4.125000238E-1,-4.972500229E1,5.321734178E1
8.892098060E-1,-1.884375000E1,4.312500060E-1,-5.000625229E1,5.344060403E1
8.992098060E-1,-1.920000076E1,5.250000358E-1,-5.008125305E1,5.363811669E1
9.092098060E-1,-1.935000038E1,5.812500119E-1,-4.993125153E1,5.355268663E1
9.192098060E-1,-1.940625000E1,7.312500477E-1,-4.983750153E1,5.348751092E1
9.292098060E-1,-1.944375038E1,6.375000477E-1,-4.983750153E1,5.349992891E1
9.392098060E-1,-1.929375076E1,7.312500477E-1,-4.981875229E1,5.342931428E1
9.492098060E-1,-1.914375114E1,7.125000358E-1,-5.017500305E1,5.370774428E1
9.592098060E-1,-1.905000114E1,4.500000179E-1,-5.011875153E1,5.361897330E1
9.692098060E-1,-1.908750153E1,3.000000119E-1,-4.991250229E1,5.343856846E1
9.792098060E-1,-1.880625153E1,2.062500119E-1,-5.017500305E1,5.358403276E1
9.892098060E-1,-1.873125076E1,1.875000075E-2,-5.025000381E1,5.362763271E1
9.992098060E-1,-1.869375038E1,-1.687500030E-1,-5.025000381E1,5.361480825E1
1.009209806E0,-1.876875114E1,-9.375000000E-2,-4.998750305E1,5.339499293E1
1.019209806E0,-1.880625153E1,-2.812500000E-1,-5.004375076E1,5.346149258E1
1.029209806E0,-1.876875114E1,-3.375000060E-1,-4.980000305E1,5.322048694E1
1.039209806E0,-1.867500114E1,-3.750000149E-2,-5.010000229E1,5.346744153E1
1.049209806E0,-1.852500153E1,1.125000045E-1,-5.011875153E1,5.343292611E1
1.059209806E0,-1.882500076E1,3.750000000E-1,-4.968750381E1,5.313538665E1
1.069209806E0,-1.886250114E1,3.937500119E-1,-4.957500076E1,5.304365833E1
1.079209806E0,-1.878750038E1,4.312500060E-1,-4.993125153E1,5.335059537E1
1.089209806E0,-1.863750076E1,2.812500000E-1,-4.995000076E1,5.331452065E1
1.099209806E0,-1.854375076E1,3.937500119E-1,-4.991250229E1,5.324738131E1
1.109209806E0,-1.871250153E1,3.000000119E-1,-5.000625229E1,5.339356685E1
1.119209806E0,-1.888125038E1,1.875000000E-1,-5.000625229E1,5.345242782E1
1.129209806E0,-1.901250076E1,3.750000149E-2,-5.011875153E1,5.360378574E1
1.139209806E0,-1.914375114E1,-2.250000089E-1,-5.025000381E1,5.377356894E1
1.149209806E0,-1.895625114E1,-1.312500089E-1,-5.026875305E1,5.372433543E1
1.159209806E0,-1.905000114E1,-2.437500060E-1,-5.000625229E1,5.351249598E1
1.169209806E0,-1.901250076E1,1.875000075E-2,-4.995000076E1,5.344602991E1
1.179209806E0,-1.893750000E1,2.625000179E-1,-5.021250153E1,5.366556738E1
1.189209806E0,-1.890000153E1,4.312500060E-1,-5.002500153E1,5.347800307E1
1.199209806E0,-1.867500114E1,5.062500238E-1,-4.993125153E1,5.331174201E1
1.209209806E0,-1.848750114E1,5.812500119E-1,-5.017500305E1,5.347575602E1
1.219209806E0,-1.833750153E1,6.750000119E-1,-4.996875381E1,5.323153149E1
1.229209806E0,-1.833750153E1,6.750000119E-1,-5.000625229E1,5.326673310E1
1.239209806E0,-1.843125153E1,7.875000238E-1,-4.968750381E1,5.300169077E1
1.249209806E0,-1.856250000E1,5.437500477E-1,-4.980000305E1,5.314981067E1
1.259209806E0,-1.854375076E1,3.375000060E-1,-4.963125229E1,5.298344838E1
1.269209806E0,-1.860000038E1,3.562500179E-1,-4.974375153E1,5.310864096E1
1.279209806E0,-1.890000153E1,1.687500030E-1,-4.968750381E1,5.316094967E1
1.289209806E0,-1.906875038E1,3.562500179E-1,-4.936875153E1,5.292464249E1
1.299209806E0,-1.908750153E1,2.250000089E-1,-4.953750229E1,5.308811046E1
1.309209806E0,-1.925625038E1,1.500000060E-1,-4.935000229E1,5.297403519E1
1.319209806E0,-1.914375114E1,3.000000119E-1,-4.951875305E1,5.309124327E1
1.329209806E0,-1.912500000E1,4.125000238E-1,-4.976250076E1,5.331268389E1
1.339209806E0,-1.933125114E1,5.625000000E-1,-4.970625305E1,5.333596600E1
1.349209806E0,-1.921875000E1,5.437500477E-1,-4.996875381E1,5.354000722E1
1.359209806E0,-1.912500000E1,5.437500477E-1,-4.983750153E1,5.338387254E1
1.369209806E0,-1.912500000E1,5.250000358E-1,-4.972500229E1,5.327867399E1
1.379209806E0,-1.899375153E1,5.062500238E-1,-4.968750381E1,5.319649351E1
1.389209806E0,-1.903125000E1,5.625000000E-1,-4.991250229E1,5.342062118E1
1.399209806E0,-1.918125153E1,3.750000000E-1,-5.006250381E1,5.361264145E1
1.409209806E0,-1.925625038E1,4.312500060E-1,-4.965000153E1,5.325515756E1
1.419209806E0,-1.921875000E1,3.000000119E-1,-4.961250305E1,5.320574039E1
1.429209806E0,-1.914375114E1,3.187500238E-1,-4.957500076E1,5.314381911E1
1.439209806E0,-1.927500153E1,3.000000119E-1,-4.948125076E1,5.310376504E1
1.449209806E0,-1.910625076E1,7.500000298E-2,-4.957500076E1,5.312941882E1
1.459209806E0,-1.921875000E1,1.500000060E-1,-4.966875076E1,5.325755959E1
1.469209806E0,-1.925625038E1,3.750000149E-2,-4.953750229E1,5.314855330E1
1.479209806E0,-1.903125000E1,1.125000045E-1,-4.944375229E1,5.298005071E1
1.489209806E0,-1.899375153E1,-5.625000224E-2,-4.989375305E1,5.338681817E1
1.499209806E0,-1.906875038E1,-1.125000045E-1,-4.991250229E1,5.343114992E1
1.509209806E0,-1.927500153E1,-2.625000179E-1,-4.970625305E1,5.331328336E1
1.519209806E0,-1.903125000E1,-1.687500030E-1,-5.000625229E1,5.350553449E1
1.529209806E0,-1.936875153E1,-1.312500089E-1,-4.995000076E1,5.357395205E1
1.539209806E0,-1.927500153E1,-1.875000000E-1,-4.978125381E1,5.338290055E1
1.549209806E0,-1.914375114E1,3.750000149E-2,-4.966875076E1,5.323034301E1
1.559209806E0,-1.931250000E1,9.375000000E-2,-4.955625153E1,5.318649745E1
1.569209806E0,-1.929375076E1,1.875000000E-1,-4.940625381E1,5.304019128E1
1.579209806E0,-1.918125153E1,1.687500030E-1,-4.948125076E1,5.306922897E1
1.589209806E0,-1.918125153E1,4.500000179E-1,-4.944375229E1,5.303590812E1
1.599209806E0,-1.920000076E1,2.062500119E-1,-4.935000229E1,5.295380340E1
1.609209806E0,-1.905000114E1,1.500000060E-1,-4.925625229E1,5.281196297E1
1.619209806E0,-1.912500000E1,3.187500238E-1,-4.948125076E1,5.304961266E1
1.629209806E0,-1.899375153E1,2.062500119E-1,-4.953750229E1,5.305439915E1
1.639209806E0,-1.888125038E1,1.500000060E-1,-4.978125381E1,5.324187588E1
1.649209806E0,-1.863750076E1,3.187500238E-1,-4.985625076E1,5.322690839E1
1.659209806E0,-1.852500153E1,4.125000238E-1,-4.976250076E1,5.310039849E1
1.669209806E0,-1.845000076E1,2.812500000E-1,-5.011875153E1,5.340759201E1
1.679209806E0,-1.845000076E1,4.687500298E-1,-5.010000229E1,5.339131469E1
1.689209806E0,-1.833750153E1,5.437500477E-1,-5.000625229E1,5.326523157E1
1.699209806E0,-1.830000114E1,3.562500179E-1,-4.996875381E1,5.321553639E1
1.709209806E0,-1.837500000E1,2.625000179E-1,-4.976250076E1,5.304729978E1
1.719209806E0,-1.854375076E1,3.000000119E-1,-4.970625305E1,5.305348513E1
1.729209806E0,-1.856250000E1,7.500000298E-2,-4.970625305E1,5.305924635E1
1.739209806E0,-1.865625000E1,-1.312500089E-1,-4.978125381E1,5.316245030E1
1.749209806E0,-1.861875153E1,-1.312500089E-1,-4.953750229E1,5.292106639E1
1.759209806E0,-1.858125114E1,-1.875000000E-1,-4.938750076E1,5.276763480E1
1.769209806E0,-1.861875153E1,-1.687500030E-1,-4.959375381E1,5.297383130E1
1.779209806E0,-1.860000038E1,-2.250000089E-1,-4.951875305E1,5.289723568E1
1.789209806E0,-1.873125076E1,-1.125000045E-1,-4.996875381E1,5.336430239E1
1.799209806E0,-1.852500153E1,-2.250000089E-1,-4.995000076E1,5.327503057E1
1.809209806E0,-1.856250000E1,-9.375000000E-2,-4.983750153E1,5.318225036E1
1.819209806E0,-1.869375038E1,1.875000075E-2,-4.978125381E1,5.317546320E1
1.829209806E0,-1.882500076E1,-9.375000000E-2,-4.974375153E1,5.318674890E1
1.839209806E0,-1.880625153E1,7.500000298E-2,-4.995000076E1,5.337305779E1
1.849209806E0,-1.895625114E1,-1.875000075E-2,-5.011875153E1,5.358385077E1
1.859209806E0,-1.903125000E1,1.500000060E-1,-5.028750229E1,5.376842812E1
1.869209806E0,-1.910625076E1,3.750000149E-2,-4.985625076E1,5.339190917E1
1.879209806E0,-1.931250000E1,1.875000000E-1,-5.002500153E1,5.362376889E1
1.889209806E0,-1.948125076E1,1.875000075E-2,-4.993125153E1,5.359710218E1
1.899209806E0,-1.935000038E1,3.000000119E-1,-5.000625229E1,5.362031129E1
1.909209806E0,-1.933125114E1,3.750000000E-1,-4.991250229E1,5.352658947E1
1.919209806E0,-1.903125000E1,4.312500060E-1,-5.010000229E1,5.359463296E1
1.929209806E0,-1.893750000E1,4.687500298E-1,-5.011875153E1,5.357926733E1
1.939209806E0,-1.901250076E1,5.250000358E-1,-4.985625076E1,5.336100215E1
1.949209806E0,-1.905000114E1,5.437500477E-1,-4.989375305E1,5.340959466E1
1.959209806E0,-1.882500076E1,4.687500298E-1,-4.978125381E1,5.322380681E1
1.969209806E0,-1.869375038E1,6.375000477E-1,-4.989375305E1,5.328460663E1
1.979209806E0,-1.871250153E1,4.875000119E-1,-4.989375305E1,5.328960464E1
1.989209806E0,-1.850625038E1,5.062500238E-1,-5.002500153E1,5.334077587E1
1.999209806E0,-1.890000153E1,4.687500298E-1,-4.987500381E1,5.333803324E1
2.009209806E0,-1.886250114E1,3.750000000E-1,-4.970625305E1,5.316621264E1
2.019209806E0,-1.878750038E1,3.187500238E-1,-4.968750381E1,5.312174515E1
2.029209806E0,-1.858125114E1,4.687500298E-1,-4.970625305E1,5.306782653E1
2.039209806E0,-1.888125038E1,5.250000358E-1,-4.968750381E1,5.315661084E1
2.049209806E0,-1.899375153E1,5.625000000E-1,-4.948125076E1,5.300446378E1
2.059209806E0,-1.903125000E1,4.875000119E-1,-4.953750229E1,5.306967369E1
2.069209806E0,-1.921875000E1,5.250000358E-1,-4.940625381E1,5.301522322E1
2.079209806E0,-1.914375114E1,4.687500298E-1,-4.927500153E1,5.286519375E1
2.089209806E0,-1.906875038E1,5.250000358E-1,-4.929375076E1,5.285609454E1
2.099209806E0,-1.908750153E1,6.000000238E-1,-4.955625153E1,5.310851890E1
2.109209806E0,-1.918125153E1,7.125000358E-1,-4.966875076E1,5.324859499E1
2.119209806E0,-1.897500038E1,8.250000477E-1,-4.983750153E1,5.333392750E1
2.129209806E0,-1.893750000E1,9.000000358E-1,-5.017500305E1,5.363739216E1
2.139209806E0,-1.890000153E1,9.187500477E-1,-5.026875305E1,5.371221177E1
2.149209806E0,-1.871250153E1,1.106250048E0,-5.019375229E1,5.357979350E1
2.159209806E0,-1.865625000E1,1.087500095E0,-5.038125229E1,5.373554599E1
2.169209806E0,-1.878750038E1,1.181250095E0,-5.051250076E1,5.390619868E1
2.179209806E0,-1.871250153E1,1.068750024E0,-5.058750153E1,5.394807921E1
2.189209806E0,-1.854375076E1,9.562500119E-1,-5.034375381E1,5.365891030E1
2.199209806E0,-1.869375038E1,7.875000238E-1,-5.043750381E1,5.379608025E1
2.209209806E0,-1.880625153E1,5.625000000E-1,-5.025000381E1,5.365682050E1
2.219209806E0,-1.876875114E1,5.625000000E-1,-5.015625381E1,5.355587944E1
2.229209806E0,-1.891875076E1,6.000000238E-1,-5.034375381E1,5.378450222E1
2.239209806E0,-1.869375038E1,5.250000358E-1,-5.038125229E1,5.374013873E1
2.249209806E0,-1.863750076E1,6.187500358E-1,-5.023125076E1,5.358094661E1
2.259209806E0,-1.878750038E1,5.625000000E-1,-5.023125076E1,5.363268714E1
2.269209806E0,-1.880625153E1,5.812500119E-1,-5.058750153E1,5.397321798E1
2.279209806E0,-1.873125076E1,7.500000000E-1,-5.036250305E1,5.373829146E1
2.289209806E0,-1.848750114E1,1.068750024E0,-5.045625305E1,5.374721758E1
2.299209806E0,-1.835625076E1,1.237500072E0,-5.038125229E1,5.363537947E1
2.309209806E0,-1.831875038E1,1.031250000E0,-5.034375381E1,5.358296035E1
2.319209806E0,-1.873125076E1,1.125000000E0,-5.019375229E1,5.358673482E1
2.329209806E0,-1.856250000E1,1.162500024E0,-5.047500229E1,5.379259864E1
2.339209806E0,-1.845000076E1,1.256250024E0,-5.025000381E1,5.354478103E1
2.349209806E0,-1.858125114E1,1.050000072E0,-5.019375229E1,5.353296333E1
2.359209806E0,-1.839375114E1,9.750000238E-1,-5.028750229E1,5.355477189E1
2.369209806E0,-1.861875153E1,9.562500119E-1,-5.025000381E1,5.359697012E1
2.379209806E0,-1.880625153E1,8.812500238E-1,-5.025000381E1,5.366110865E1
2.389209806E0,-1.888125038E1,8.812500238E-1,-5.013750076E1,5.358215375E1
2.399209806E0,-1.860000038E1,9.375000596E-1,-5.036250305E1,5.369562956E1
2.409209806E0,-1.873125076E1,7.312500477E-1,-5.017500305E1,5.356235070E1
2.419209806E0,-1.858125114E1,6.562500000E-1,-5.025000381E1,5.357944047E1
2.429209806E0,-1.856250000E1,7.875000238E-1,-5.025000381E1,5.357470901E1
2.439209806E0,-1.863750076E1,8.062500358E-1,-5.006250381E1,5.342528205E1
2.449209806E0,-1.846875000E1,6.187500358E-1,-5.019375229E1,5.348729145E1
2.459209806E0,-1.841250038E1,6.562500000E-1,-5.026875305E1,5.353875575E1
2.469209806E0,-1.843125153E1,5.437500477E-1,-5.028750229E1,5.356154949E1
2.479209806E0,-1.858125114E1,6.000000238E-1,-5.028750229E1,5.361395136E1
2.489209806E0,-1.858125114E1,6.937500238E-1,-5.017500305E1,5.350957965E1
2.499209806E0,-1.856250000E1,7.687500119E-1,-5.040000153E1,5.371515183E1
2.509209806E0,-1.839375114E1,9.750000238E-1,-5.043750381E1,5.369564691E1
2.519209806E0,-1.841250038E1,1.143750072E0,-5.051250076E1,5.377584093E1
2.529209806E0,-1.837500000E1,1.237500072E0,-5.051250076E1,5.376508872E1
2.539209806E0,-1.835625076E1,1.218750000E0,-5.040000153E1,5.365256236E1
2.549209806E0,-1.824375153E1,1.481250048E0,-5.060625076E1,5.381469305E1
2.559209806E0,-1.830000114E1,1.256250024E0,-5.053125381E1,5.375756522E1
2.569209806E0,-1.852500153E1,1.256250024E0,-5.041875076E1,5.372898914E1
2.579209806E0,-1.860000038E1,1.106250048E0,-5.023125076E1,5.357576277E1
2.589209806E0,-1.890000153E1,8.250000477E-1,-5.017500305E1,5.362295790E1
2.599209806E0,-1.878750038E1,6.750000119E-1,-5.021250153E1,5.361642570E1
2.609209806E0,-1.890000153E1,6.750000119E-1,-5.008125305E1,5.353314478E1
2.619209806E0,-1.882500076E1,6.750000119E-1,-5.038125229E1,5.378760880E1
2.629209806E0,-1.886250114E1,5.062500238E-1,-5.045625305E1,5.386913505E1
2.639209806E0,-1.897500038E1,5.062500238E-1,-5.030625153E1,5.376826082E1
2.649209806E0,-1.886250114E1,4.125000238E-1,-5.047500229E1,5.388589761E1
2.659209806E0,-1.899375153E1,4.687500298E-1,-5.049375153E1,5.394998857E1
2.669209806E0,-1.884375000E1,6.375000477E-1,-5.071875381E1,5.410993725E1
2.679209806E0,-1.890000153E1,5.812500119E-1,-5.081250381E1,5.421677280E1
2.689209806E0,-1.886250114E1,4.500000179E-1,-5.107500076E1,5.444861938E1
2.699209806E0,-1.905000114E1,3.187500238E-1,-5.079375076E1,5.424950932E1
2.709209806E0,-1.910625076E1,4.500000179E-1,-5.055000305E1,5.404215139E1
2.719209806E0,-1.876875114E1,5.625000000E-1,-5.094375229E1,5.429409105E1
