"Time (s)","Magnetic Field x (µT)","Magnetic Field y (µT)","Magnetic Field z (µT)","Absolute field (µT)"
1.715647500E-2,-1.957500076E1,-2.199375153E1,-4.725000000E1,5.567286827E1
2.715647500E-2,-2.512500191E1,-2.362500000E1,-4.591875076E1,5.742767641E1
3.715647500E-2,-2.936250114E1,-2.456250191E1,-4.447500229E1,5.868133265E1
4.715647500E-2,-3.198750114E1,-2.546250153E1,-4.303125000E1,5.935678302E1
5.715647500E-2,-3.363750076E1,-2.619375038E1,-4.181250000E1,5.971498282E1
6.715647500E-2,-3.465000153E1,-2.651250076E1,-4.081875229E1,5.974701533E1
7.715647500E-2,-3.487500000E1,-2.653125191E1,-4.018125153E1,5.945339290E1
8.715647500E-2,-3.450000000E1,-2.619375038E1,-4.006875229E1,5.900735097E1
9.715647500E-2,-3.431250000E1,-2.585625076E1,-4.012500000E1,5.878697972E1
1.071564750E-1,-3.382500076E1,-2.533125114E1,-4.033125305E1,5.841586201E1
1.171564750E-1,-3.339375305E1,-2.490000153E1,-4.051875305E1,5.811129122E1
1.271564750E-1,-3.313125229E1,-2.456250191E1,-4.068750000E1,5.793504151E1
1.371564750E-1,-3.262500000E1,-2.398125076E1,-4.085625076E1,5.752151110E1
1.471564750E-1,-3.193125153E1,-2.373750114E1,-4.098750305E1,5.712310558E1
1.571564750E-1,-3.101250076E1,-2.334375000E1,-4.160625076E1,5.690154629E1
1.671564750E-1,-3.035625076E1,-2.302500153E1,-4.203750229E1,5.673450673E1
1.771564750E-1,-2.930625153E1,-2.280000114E1,-4.260000229E1,5.651067709E1
1.871564750E-1,-2.835000038E1,-2.276250076E1,-4.288125229E1,5.621970972E1
1.971564750E-1,-2.735625076E1,-2.285625076E1,-4.318125153E1,5.599458133E1
2.071564750E-1,-2.643750191E1,-2.278125000E1,-4.344375229E1,5.572509732E1
2.171564750E-1,-2.540625191E1,-2.300625038E1,-4.363125229E1,5.548379375E1
2.271564750E-1,-2.437500191E1,-2.296875000E1,-4.376250076E1,5.510771877E1
2.371564750E-1,-2.338125038E1,-2.280000114E1,-4.376250076E1,5.460475615E1
2.471564750E-1,-2.221875000E1,-2.285625076E1,-4.400625229E1,5.433812005E1
2.571564750E-1,-2.118750000E1,-2.276250076E1,-4.419375229E1,5.403822109E1
2.671564750E-1,-2.002500153E1,-2.274375153E1,-4.447500229E1,5.381732758E1
2.771564750E-1,-1.886250114E1,-2.253750038E1,-4.466250229E1,5.346467978E1
2.871564750E-1,-1.756875038E1,-2.225625038E1,-4.485000229E1,5.306151502E1
2.971564750E-1,-1.650000000E1,-2.190000153E1,-4.503750229E1,5.272794970E1
3.071564750E-1,-1.535625076E1,-2.165625000E1,-4.561875153E1,5.278141806E1
3.171564750E-1,-1.423125076E1,-2.152500153E1,-4.584375000E1,5.260706799E1
3.271564750E-1,-1.318125057E1,-2.124375153E1,-4.608750153E1,5.243186190E1
3.371564750E-1,-1.215000057E1,-2.103750038E1,-4.616250229E1,5.216488813E1
3.471564750E-1,-1.125000000E1,-2.060625076E1,-4.638750076E1,5.199019424E1
3.571564750E-1,-1.061250019E1,-2.051250076E1,-4.635000229E1,5.178523496E1
3.671564750E-1,-9.525000572E0,-2.056875038E1,-4.638750076E1,5.162944272E1
3.771564750E-1,-8.681250572E0,-2.066250038E1,-4.620000076E1,5.134922691E1
3.871564750E-1,-7.912500381E0,-2.090625000E1,-4.601250076E1,5.115495262E1
3.971564750E-1,-7.181250095E0,-2.101875114E1,-4.603125000E1,5.111002083E1
4.071564750E-1,-6.450000286E0,-2.131875038E1,-4.580625153E1,5.093431358E1
4.171564750E-1,-5.962500095E0,-2.184375000E1,-4.580625153E1,5.109709875E1
4.271564750E-1,-5.643750191E0,-2.253750038E1,-4.565625000E1,5.122776595E1
4.371564750E-1,-5.381250381E0,-2.287500000E1,-4.560000229E1,5.129896382E1
4.471564750E-1,-5.381250381E0,-2.332500076E1,-4.545000076E1,5.136843472E1
4.571564750E-1,-5.568750381E0,-2.379375076E1,-4.543125153E1,5.158635645E1
4.671564750E-1,-5.775000095E0,-2.422500038E1,-4.507500076E1,5.149715491E1
4.771564750E-1,-5.943750381E0,-2.471250153E1,-4.473750305E1,5.145366925E1
4.871564750E-1,-6.300000191E0,-2.512500191E1,-4.440000153E1,5.140346154E1
4.971564750E-1,-6.487500191E0,-2.548125076E1,-4.410000229E1,5.134386040E1
5.071564750E-1,-6.468750477E0,-2.568750191E1,-4.383750153E1,5.121932279E1
5.171564750E-1,-6.412500381E0,-2.593125153E1,-4.376250076E1,5.127091222E1
5.271564750E-1,-6.618750095E0,-2.610000038E1,-4.366875076E1,5.130280368E1
5.371564750E-1,-6.393750191E0,-2.626875114E1,-4.340625000E1,5.113736273E1
5.471564750E-1,-6.243750095E0,-2.649375153E1,-4.335000229E1,5.118716620E1
5.571564750E-1,-6.412500381E0,-2.681250191E1,-4.303125000E1,5.110497917E1
5.671564750E-1,-6.300000191E0,-2.700000191E1,-4.305000305E1,5.120539882E1
5.771564750E-1,-6.356250286E0,-2.703750038E1,-4.267500305E1,5.091742560E1
5.871564750E-1,-6.787500381E0,-2.724375153E1,-4.246875000E1,5.091057734E1
5.971564750E-1,-6.937500477E0,-2.760000038E1,-4.226250076E1,5.095103438E1
6.071564750E-1,-7.125000477E0,-2.791875076E1,-4.198125076E1,5.091804878E1
6.171564750E-1,-7.331250191E0,-2.808750153E1,-4.173750305E1,5.083969052E1
6.271564750E-1,-7.687500477E0,-2.820000076E1,-4.138125229E1,5.066306098E1
6.371564750E-1,-7.668750286E0,-2.818125153E1,-4.145625305E1,5.071107952E1
6.471564750E-1,-7.743750095E0,-2.827500153E1,-4.126875305E1,5.062164908E1
6.571564750E-1,-7.800000191E0,-2.853750038E1,-4.128750229E1,5.079258584E1
6.671564750E-1,-7.368750095E0,-2.851875114E1,-4.108125305E1,5.054984666E1
6.771564750E-1,-7.012500286E0,-2.853750038E1,-4.117500305E1,5.058601550E1
6.871564750E-1,-6.581250191E0,-2.857500076E1,-4.121250153E1,5.057977664E1
6.971564750E-1,-6.487500191E0,-2.846250153E1,-4.145625305E1,5.070327967E1
7.071564750E-1,-6.168750286E0,-2.829375076E1,-4.134375000E1,5.047668250E1
7.171564750E-1,-6.093750477E0,-2.810625076E1,-4.123125076E1,5.027038061E1
7.271564750E-1,-5.850000381E0,-2.782500076E1,-4.110000229E1,4.997662814E1
7.371564750E-1,-5.737500191E0,-2.763750076E1,-4.117500305E1,4.992125032E1
7.471564750E-1,-5.737500191E0,-2.748750114E1,-4.136250305E1,4.999338243E1
7.571564750E-1,-5.925000191E0,-2.730000114E1,-4.134375000E1,4.989690726E1
7.671564750E-1,-6.150000095E0,-2.700000191E1,-4.134375000E1,4.976071009E1
7.771564750E-1,-6.018750191E0,-2.675625038E1,-4.143750000E1,4.969093171E1
7.871564750E-1,-6.018750191E0,-2.651250076E1,-4.164375305E1,4.973268763E1
7.971564750E-1,-5.756250381E0,-2.623125076E1,-4.177500153E1,4.966249780E1
8.071564750E-1,-5.775000095E0,-2.602500153E1,-4.192500305E1,4.968256446E1
8.171564750E-1,-5.737500191E0,-2.555625153E1,-4.196250153E1,4.946607357E1
8.271564750E-1,-5.812500000E0,-2.536875153E1,-4.203750229E1,4.944198933E1
8.371564750E-1,-5.700000286E0,-2.488125038E1,-4.203750229E1,4.918046586E1
8.471564750E-1,-5.568750381E0,-2.433750153E1,-4.200000000E1,4.886025953E1
8.571564750E-1,-5.587500095E0,-2.415000153E1,-4.190625000E1,4.868856663E1
8.671564750E-1,-5.418750286E0,-2.388750076E1,-4.209375000E1,4.870173854E1
8.771564750E-1,-5.475000381E0,-2.358750153E1,-4.222500229E1,4.867542168E1
8.871564750E-1,-5.381250381E0,-2.340000153E1,-4.198125076E1,4.836262341E1
8.971564750E-1,-5.268750191E0,-2.336250114E1,-4.181250000E1,4.818559271E1
9.071564750E-1,-5.137500286E0,-2.330625153E1,-4.153125000E1,4.790010434E1
9.171564750E-1,-4.950000286E0,-2.349375153E1,-4.136250305E1,4.782588757E1
9.271564750E-1,-4.612500191E0,-2.398125076E1,-4.113750076E1,4.784004092E1
9.371564750E-1,-4.575000286E0,-2.454375076E1,-4.089375305E1,4.791268483E1
9.471564750E-1,-4.631250381E0,-2.514375114E1,-4.042500305E1,4.783134509E1
9.571564750E-1,-4.218750000E0,-2.606250191E1,-3.976875305E1,4.773474182E1
9.671564750E-1,-3.993750095E0,-2.679375076E1,-3.960000229E1,4.797932160E1
9.771564750E-1,-3.637500048E0,-2.761875153E1,-3.922500229E1,4.811057729E1
9.871564750E-1,-3.543750048E0,-2.851875114E1,-3.886875153E1,4.833898195E1
9.971564750E-1,-3.412500143E0,-2.932500076E1,-3.815625000E1,4.824417313E1
1.007156475E0,-3.468750238E0,-3.013125038E1,-3.763125229E1,4.833255245E1
1.017156475E0,-3.262500048E0,-3.056250191E1,-3.706875229E1,4.815394922E1
1.027156475E0,-3.093750238E0,-3.121875191E1,-3.680625153E1,4.836198830E1
1.037156475E0,-3.112500191E0,-3.153750038E1,-3.669375229E1,4.848435876E1
1.047156475E0,-3.168750048E0,-3.172500038E1,-3.646875000E1,4.844054451E1
1.057156475E0,-3.243750095E0,-3.180000114E1,-3.639375305E1,4.843828288E1
1.067156475E0,-3.150000095E0,-3.185625076E1,-3.624375153E1,4.835651702E1
1.077156475E0,-3.187500238E0,-3.170625114E1,-3.650625229E1,4.845774423E1
1.087156475E0,-3.300000191E0,-3.146250153E1,-3.673125076E1,4.847642506E1
1.097156475E0,-3.131250143E0,-3.123750114E1,-3.701250076E1,4.853361122E1
1.107156475E0,-2.962500095E0,-3.073125076E1,-3.738750076E1,4.848722918E1
1.117156475E0,-3.093750238E0,-3.058125114E1,-3.774375153E1,4.867622614E1
1.127156475E0,-3.093750238E0,-3.069375038E1,-3.778125000E1,4.877602336E1
1.137156475E0,-3.131250143E0,-3.035625076E1,-3.804375076E1,4.877123804E1
1.147156475E0,-2.868750095E0,-3.003750038E1,-3.836250305E1,4.880740514E1
1.157156475E0,-2.981250048E0,-2.998125076E1,-3.838125229E1,4.879430066E1
1.167156475E0,-2.906250000E0,-2.975625038E1,-3.855000305E1,4.878507416E1
1.177156475E0,-2.962500095E0,-2.973750114E1,-3.855000305E1,4.877702447E1
1.187156475E0,-3.037500143E0,-2.956875038E1,-3.843750000E1,4.858990443E1
1.197156475E0,-2.868750095E0,-2.913750076E1,-3.823125076E1,4.815446202E1
1.207156475E0,-2.831250191E0,-2.876250076E1,-3.849375153E1,4.813591522E1
1.217156475E0,-2.700000048E0,-2.863125038E1,-3.836250305E1,4.794496990E1
1.227156475E0,-2.831250191E0,-2.850000191E1,-3.828750229E1,4.781421251E1
1.237156475E0,-2.456250191E0,-2.820000076E1,-3.847500229E1,4.776608639E1
1.247156475E0,-2.325000048E0,-2.814375114E1,-3.845625305E1,4.771121202E1
1.257156475E0,-2.100000143E0,-2.790000153E1,-3.843750000E1,4.754220748E1
1.267156475E0,-1.912500024E0,-2.788125038E1,-3.845625305E1,4.753845999E1
1.277156475E0,-1.856250048E0,-2.793750191E1,-3.853125000E1,4.762989506E1
1.287156475E0,-1.837500095E0,-2.797500038E1,-3.840000153E1,4.754510669E1
1.297156475E0,-1.687500119E0,-2.814375114E1,-3.847500229E1,4.769951977E1
1.307156475E0,-1.462500095E0,-2.825625038E1,-3.813750076E1,4.748708831E1
1.317156475E0,-1.462500095E0,-2.838750076E1,-3.770625305E1,4.722023534E1
1.327156475E0,-1.350000024E0,-2.857500076E1,-3.748125076E1,4.715079350E1
1.337156475E0,-1.275000095E0,-2.891250038E1,-3.735000229E1,4.725019550E1
1.347156475E0,-1.631250024E0,-2.941875076E1,-3.703125000E1,4.732269381E1
1.357156475E0,-1.631250024E0,-2.971875191E1,-3.656250000E1,4.714532424E1
1.367156475E0,-1.837500095E0,-3.009375191E1,-3.626250076E1,4.715908472E1
1.377156475E0,-1.950000048E0,-3.043125153E1,-3.575625229E1,4.699333088E1
1.387156475E0,-2.043750048E0,-3.084375191E1,-3.558750153E1,4.713792752E1
1.397156475E0,-1.912500024E0,-3.140625191E1,-3.536250305E1,4.733409910E1
1.407156475E0,-2.062500000E0,-3.187500191E1,-3.506250000E1,4.743046025E1
1.417156475E0,-2.231250048E0,-3.240000153E1,-3.453750229E1,4.740862411E1
1.427156475E0,-1.687500119E0,-3.288750076E1,-3.410625076E1,4.740961616E1
1.437156475E0,-1.443750024E0,-3.346875000E1,-3.397500229E1,4.771312630E1
1.447156475E0,-1.162500024E0,-3.414375305E1,-3.358125305E1,4.790457009E1
1.457156475E0,-1.012500048E0,-3.461250305E1,-3.307500076E1,4.788534431E1
1.467156475E0,-1.200000048E0,-3.530625153E1,-3.253125000E1,4.802346951E1
1.477156475E0,-1.537500024E0,-3.590625000E1,-3.193125153E1,4.807522771E1
1.487156475E0,-1.687500119E0,-3.630000305E1,-3.146250153E1,4.806690005E1
1.497156475E0,-1.987500072E0,-3.680625153E1,-3.101250076E1,4.817079521E1
1.507156475E0,-2.643750191E0,-3.708750153E1,-3.041250038E1,4.803532413E1
1.517156475E0,-3.450000048E0,-3.748125076E1,-2.964375114E1,4.791136234E1
1.527156475E0,-4.031250000E0,-3.765000153E1,-2.928750038E1,4.786994120E1
1.537156475E0,-4.650000095E0,-3.800625229E1,-2.885625076E1,4.794560378E1
1.547156475E0,-5.325000286E0,-3.780000305E1,-2.866875076E1,4.773984844E1
1.557156475E0,-5.981250286E0,-3.774375153E1,-2.866875076E1,4.777304056E1
1.567156475E0,-6.675000191E0,-3.770625305E1,-2.835000038E1,4.764493329E1
1.577156475E0,-7.425000191E0,-3.735000229E1,-2.825625038E1,4.741907827E1
1.587156475E0,-8.212500572E0,-3.723750305E1,-2.831250191E1,4.749394239E1
1.597156475E0,-8.981250763E0,-3.701250076E1,-2.803125191E1,4.728994778E1
1.607156475E0,-9.787500381E0,-3.678750229E1,-2.791875076E1,4.720775500E1
1.617156475E0,-1.048125076E1,-3.648750305E1,-2.780625153E1,4.705722177E1
1.627156475E0,-1.115625000E1,-3.645000076E1,-2.776875114E1,4.716108576E1
1.637156475E0,-1.171875000E1,-3.639375305E1,-2.761875153E1,4.716598137E1
1.647156475E0,-1.209375095E1,-3.622500229E1,-2.767500114E1,4.716370735E1
1.657156475E0,-1.284375095E1,-3.626250076E1,-2.748750114E1,4.728100696E1
1.667156475E0,-1.314375019E1,-3.613125229E1,-2.743125153E1,4.723027759E1
1.677156475E0,-1.350000095E1,-3.579375076E1,-2.760000038E1,4.717205360E1
1.687156475E0,-1.385625076E1,-3.560625076E1,-2.748750114E1,4.706764810E1
1.697156475E0,-1.438125038E1,-3.523125076E1,-2.767500114E1,4.705281162E1
1.707156475E0,-1.468125057E1,-3.478125000E1,-2.771250153E1,4.683222406E1
1.717156475E0,-1.541250038E1,-3.420000076E1,-2.773125076E1,4.664983911E1
1.727156475E0,-1.616250038E1,-3.376875305E1,-2.761875153E1,4.652258094E1
1.737156475E0,-1.642500114E1,-3.337500000E1,-2.769375038E1,4.637472477E1
1.747156475E0,-1.711875153E1,-3.307500076E1,-2.748750114E1,4.628790391E1
1.757156475E0,-1.771875000E1,-3.309375000E1,-2.733750153E1,4.643801654E1
1.767156475E0,-1.807500076E1,-3.286875153E1,-2.713125038E1,4.629433255E1
1.777156475E0,-1.850625038E1,-3.285000229E1,-2.694375038E1,4.634187780E1
1.787156475E0,-1.899375153E1,-3.283125305E1,-2.673750114E1,4.640633299E1
1.797156475E0,-1.936875153E1,-3.279375076E1,-2.677500153E1,4.655619541E1
1.807156475E0,-1.953750038E1,-3.285000229E1,-2.660625076E1,4.656961618E1
1.817156475E0,-2.002500153E1,-3.286875153E1,-2.602500153E1,4.646134111E1
1.827156475E0,-2.011875153E1,-3.271875000E1,-2.581875038E1,4.628054273E1
1.837156475E0,-1.991250038E1,-3.255000305E1,-2.598750114E1,4.616666098E1
1.847156475E0,-2.026875114E1,-3.266250229E1,-2.596875191E1,4.639005717E1
1.857156475E0,-2.051250076E1,-3.283125305E1,-2.585625076E1,4.655319074E1
1.867156475E0,-2.068125153E1,-3.277500153E1,-2.580000114E1,4.655700751E1
1.877156475E0,-2.049375153E1,-3.286875153E1,-2.542500114E1,4.633335043E1
1.887156475E0,-2.064375114E1,-3.279375076E1,-2.555625153E1,4.641892440E1
1.897156475E0,-2.051250076E1,-3.266250229E1,-2.604375076E1,4.653900189E1
1.907156475E0,-2.066250038E1,-3.256875229E1,-2.621250153E1,4.663429836E1
1.917156475E0,-2.094375038E1,-3.255000305E1,-2.602500153E1,4.664165609E1
1.927156475E0,-2.083125114E1,-3.238125229E1,-2.611875153E1,4.652607554E1
1.937156475E0,-2.068125153E1,-3.208125305E1,-2.643750191E1,4.643126607E1
1.947156475E0,-2.049375153E1,-3.206250000E1,-2.651250076E1,4.637790912E1
1.957156475E0,-2.019375038E1,-3.195000076E1,-2.688750076E1,4.638456425E1
1.967156475E0,-1.976250076E1,-3.187500191E1,-2.716875076E1,4.631104837E1
1.977156475E0,-1.957500076E1,-3.189375114E1,-2.739375114E1,4.637682200E1
1.987156475E0,-1.921875000E1,-3.196875191E1,-2.767500114E1,4.644638994E1
1.997156475E0,-1.878750038E1,-3.185625076E1,-2.786250114E1,4.630453383E1
2.007156475E0,-1.850625038E1,-3.172500038E1,-2.821875191E1,4.631689661E1
2.017156475E0,-1.786875153E1,-3.157500076E1,-2.865000153E1,4.622873070E1
2.027156475E0,-1.721250153E1,-3.123750114E1,-2.908125114E1,4.601924439E1
2.037156475E0,-1.683750153E1,-3.086250114E1,-2.953125191E1,4.591394422E1
2.047156475E0,-1.621875000E1,-3.033750153E1,-2.992500114E1,4.559514825E1
2.057156475E0,-1.524375057E1,-2.970000076E1,-3.056250191E1,4.526067277E1
2.067156475E0,-1.426875019E1,-2.896875191E1,-3.127500153E1,4.495454971E1
2.077156475E0,-1.346250057E1,-2.846250153E1,-3.215625000E1,4.500419235E1
2.087156475E0,-1.239375019E1,-2.784375191E1,-3.286875153E1,4.482448428E1
2.097156475E0,-1.166250038E1,-2.726250076E1,-3.335625076E1,4.463067698E1
2.107156475E0,-1.068750000E1,-2.656875038E1,-3.405000305E1,4.449184039E1
2.117156475E0,-9.618750572E0,-2.589375114E1,-3.483750153E1,4.445962464E1
2.127156475E0,-8.737500191E0,-2.536875153E1,-3.551250076E1,4.450904598E1
2.137156475E0,-7.837500095E0,-2.482500076E1,-3.605625153E1,4.447201755E1
2.147156475E0,-7.143750191E0,-2.437500191E1,-3.635625076E1,4.435031966E1
2.157156475E0,-6.375000477E0,-2.364375114E1,-3.671250153E1,4.413020924E1
2.167156475E0,-5.662500381E0,-2.310000038E1,-3.693750000E1,4.393236659E1
2.177156475E0,-5.306250095E0,-2.295000076E1,-3.736875153E1,4.417332244E1
2.187156475E0,-5.062500000E0,-2.300625038E1,-3.736875153E1,4.417397484E1
2.197156475E0,-4.800000191E0,-2.347500038E1,-3.695625305E1,4.404407207E1
2.207156475E0,-4.631250381E0,-2.413125038E1,-3.654375076E1,4.403647857E1
2.217156475E0,-4.893750191E0,-2.486250114E1,-3.592500305E1,4.396246806E1
2.227156475E0,-4.818750381E0,-2.574375153E1,-3.566250229E1,4.424675318E1
2.237156475E0,-4.856250286E0,-2.685000038E1,-3.502500153E1,4.439883353E1
2.247156475E0,-4.706250191E0,-2.799375153E1,-3.451875305E1,4.469164606E1
2.257156475E0,-4.350000381E0,-2.908125114E1,-3.363750076E1,4.467799379E1
2.267156475E0,-3.787500143E0,-3.009375191E1,-3.283125305E1,4.469754175E1
2.277156475E0,-3.450000048E0,-3.103125191E1,-3.225000000E1,4.488767754E1
2.287156475E0,-3.000000000E0,-3.191250038E1,-3.174375153E1,4.511178828E1
2.297156475E0,-2.268750191E0,-3.283125305E1,-3.120000076E1,4.534841179E1
2.307156475E0,-1.762500048E0,-3.371250153E1,-3.043125153E1,4.544997508E1
2.317156475E0,-1.143750072E0,-3.461250305E1,-2.958750153E1,4.554946518E1
2.327156475E0,-5.812500119E-1,-3.553125000E1,-2.868750191E1,4.567034425E1
2.337156475E0,-2.625000179E-1,-3.641250229E1,-2.758125114E1,4.568002456E1
2.347156475E0,-1.500000060E-1,-3.748125076E1,-2.671875191E1,4.602997243E1
2.357156475E0,1.125000045E-1,-3.849375153E1,-2.572500038E1,4.629856593E1
2.367156475E0,7.500000298E-2,-3.939375305E1,-2.430000114E1,4.628567230E1
2.377156475E0,7.500000298E-2,-4.025625229E1,-2.326875114E1,4.649737899E1
2.387156475E0,7.500000298E-2,-4.085625076E1,-2.240625000E1,4.659698371E1
2.397156475E0,1.875000075E-2,-4.140000153E1,-2.154375076E1,4.667005116E1
2.407156475E0,-1.875000000E-1,-4.186875153E1,-2.077500153E1,4.674000641E1
2.417156475E0,-5.437500477E-1,-4.216875076E1,-2.034375000E1,4.682272279E1
2.427156475E0,-9.562500119E-1,-4.224375153E1,-2.004375076E1,4.676751973E1
2.437156475E0,-1.575000048E0,-4.218750000E1,-1.963125038E1,4.655804735E1
2.447156475E0,-2.118750095E0,-4.220625305E1,-1.963125038E1,4.659659741E1
2.457156475E0,-3.018750191E0,-4.224375153E1,-1.950000000E1,4.662507261E1
2.467156475E0,-3.806250095E0,-4.235625076E1,-1.948125076E1,4.677668917E1
2.477156475E0,-4.687500000E0,-4.260000229E1,-1.980000114E1,4.720988134E1
2.487156475E0,-5.531250000E0,-4.267500305E1,-2.006250000E1,4.747899028E1
2.497156475E0,-6.131250381E0,-4.276875305E1,-2.056875038E1,4.785218868E1
2.507156475E0,-6.900000095E0,-4.303125000E1,-2.062500000E1,4.821502984E1
2.517156475E0,-7.237500191E0,-4.333125305E1,-2.105625153E1,4.871698501E1
2.527156475E0,-7.593750477E0,-4.359375000E1,-2.120625114E1,4.906918761E1
2.537156475E0,-7.481250286E0,-4.391250229E1,-2.137500000E1,4.940817329E1
2.547156475E0,-7.687500477E0,-4.417500305E1,-2.120625114E1,4.960074239E1
2.557156475E0,-8.006250381E0,-4.430625153E1,-2.088750076E1,4.963296946E1
2.567156475E0,-8.343750000E0,-4.481250000E1,-2.060625076E1,5.002395317E1
2.577156475E0,-8.700000763E0,-4.513125229E1,-2.000625038E1,5.012753735E1
2.587156475E0,-8.887500763E0,-4.565625000E1,-1.974375153E1,5.053015494E1
2.597156475E0,-9.300000191E0,-4.612500000E1,-1.935000038E1,5.087659721E1
2.607156475E0,-9.600000381E0,-4.648125076E1,-1.931250000E1,5.124099273E1
2.617156475E0,-1.027500057E1,-4.661250305E1,-1.921875000E1,5.145543148E1
2.627156475E0,-1.081875038E1,-4.691250229E1,-1.901250076E1,5.176198814E1
2.637156475E0,-1.113750076E1,-4.693125153E1,-1.905000114E1,5.186028188E1
2.647156475E0,-1.175625038E1,-4.698750305E1,-1.916250038E1,5.208873474E1
2.657156475E0,-1.218750095E1,-4.713750076E1,-1.933125114E1,5.238488741E1
2.667156475E0,-1.278750038E1,-4.678125000E1,-1.950000000E1,5.227098160E1
2.677156475E0,-1.329375076E1,-4.646250153E1,-1.970625114E1,5.219026913E1
2.687156475E0,-1.396875095E1,-4.623750305E1,-1.985625076E1,5.222359032E1
2.697156475E0,-1.425000095E1,-4.606875229E1,-2.008125114E1,5.223647301E1
2.707156475E0,-1.449375057E1,-4.576875305E1,-2.081250000E1,5.232597556E1
2.717156475E0,-1.490625095E1,-4.586250305E1,-2.156250000E1,5.282524879E1
